time	V(m)*Id(M1)
Step Information: Id=2  (Step: 1/7)
0.000000000000000e+00	-0.000000e+00
6.835937578564060e-16	1.996145e-02
1.367187515712812e-15	1.997395e-02
2.734375031425624e-15	1.999895e-02
5.468750062851248e-15	2.004893e-02
1.093750012570250e-14	2.014886e-02
2.187500025140499e-14	2.034854e-02
4.375000050280999e-14	2.074715e-02
8.750000100561997e-14	2.154119e-02
1.750000020112399e-13	2.311494e-02
3.500000040224799e-13	2.619445e-02
7.000000080449598e-13	3.202387e-02
1.400000016089920e-12	4.219168e-02
2.619721539444315e-12	5.550015e-02
4.277545058595108e-12	6.742419e-02
6.965433451610193e-12	8.047351e-02
1.105864511078651e-11	9.623413e-02
1.677882367116665e-11	1.168760e-01
2.278912913891516e-11	1.379871e-01
3.248504703549257e-11	1.712254e-01
4.933831877969557e-11	2.269647e-01
8.304486226810157e-11	3.308435e-01
1.504579492449136e-10	5.095429e-01
2.188173242449136e-10	6.538562e-01
2.871766992449136e-10	7.661813e-01
3.555360742449136e-10	8.524177e-01
4.238954492449137e-10	9.177801e-01
4.922548242449137e-10	9.671728e-01
5.606141992449136e-10	1.004091e+00
6.289735742449136e-10	1.031808e+00
6.973329492449136e-10	1.052424e+00
7.656923242449135e-10	1.067944e+00
8.340516992449135e-10	1.079522e+00
9.024110742449135e-10	1.088342e+00
9.707704492449134e-10	1.094996e+00
1.039129824244913e-09	1.100183e+00
1.107489199244913e-09	1.104182e+00
1.175848574244913e-09	1.107412e+00
1.244207949244913e-09	1.109986e+00
1.312567324244913e-09	1.112164e+00
1.380926699244913e-09	1.113977e+00
1.449286074244913e-09	1.115590e+00
1.517645449244913e-09	1.116995e+00
1.586004824244913e-09	1.118304e+00
1.654364199244913e-09	1.119492e+00
1.722723574244913e-09	1.120636e+00
1.791082949244913e-09	1.121707e+00
1.859442324244913e-09	1.122763e+00
1.927801699244913e-09	1.123771e+00
1.996161074244913e-09	1.124777e+00
2.064520449244914e-09	1.125752e+00
2.132879824244914e-09	1.126729e+00
2.201239199244914e-09	1.127685e+00
2.269598574244914e-09	1.128647e+00
2.337957949244914e-09	1.129592e+00
2.406317324244914e-09	1.130543e+00
2.474676699244915e-09	1.131482e+00
2.543036074244915e-09	1.132426e+00
2.611395449244915e-09	1.133360e+00
2.679754824244915e-09	1.134300e+00
2.748114199244915e-09	1.135231e+00
2.816473574244915e-09	1.136167e+00
2.884832949244916e-09	1.137095e+00
2.953192324244916e-09	1.138028e+00
3.021551699244916e-09	1.138954e+00
3.089911074244916e-09	1.139884e+00
3.158270449244916e-09	1.140808e+00
3.226629824244916e-09	1.141735e+00
3.294989199244917e-09	1.142658e+00
3.363348574244917e-09	1.143582e+00
3.431707949244917e-09	1.144503e+00
3.500067324244917e-09	1.145425e+00
3.568426699244917e-09	1.146344e+00
3.636786074244917e-09	1.147264e+00
3.705145449244918e-09	1.148181e+00
3.773504824244917e-09	1.149098e+00
3.841864199244918e-09	1.150013e+00
3.910223574244918e-09	1.150929e+00
3.978582949244918e-09	1.151842e+00
4.046942324244918e-09	1.152755e+00
4.115301699244918e-09	1.153667e+00
4.183661074244918e-09	1.154578e+00
4.252020449244919e-09	1.155488e+00
4.320379824244919e-09	1.156397e+00
4.388739199244919e-09	1.157305e+00
4.457098574244919e-09	1.158212e+00
4.525457949244919e-09	1.159118e+00
4.593817324244919e-09	1.160024e+00
4.662176699244920e-09	1.160928e+00
4.730536074244920e-09	1.161832e+00
4.798895449244920e-09	1.162735e+00
4.867254824244920e-09	1.163637e+00
4.935614199244920e-09	1.164538e+00
5.003973574244921e-09	1.165438e+00
5.072332949244921e-09	1.166337e+00
5.140692324244921e-09	1.167236e+00
5.209051699244921e-09	1.168134e+00
5.277411074244921e-09	1.169031e+00
5.345770449244921e-09	1.169927e+00
5.414129824244922e-09	1.170822e+00
5.482489199244922e-09	1.171717e+00
5.550848574244922e-09	1.172611e+00
5.619207949244922e-09	1.173504e+00
5.687567324244922e-09	1.174396e+00
5.755926699244922e-09	1.175287e+00
5.824286074244923e-09	1.176178e+00
5.892645449244923e-09	1.177069e+00
5.961004824244923e-09	1.177958e+00
6.029364199244923e-09	1.178847e+00
6.097723574244923e-09	1.179735e+00
6.166082949244923e-09	1.180622e+00
6.234442324244924e-09	1.181509e+00
6.302801699244924e-09	1.182395e+00
6.371161074244924e-09	1.183280e+00
6.439520449244924e-09	1.184165e+00
6.507879824244924e-09	1.185049e+00
6.576239199244924e-09	1.185933e+00
6.644598574244925e-09	1.186816e+00
6.712957949244925e-09	1.187698e+00
6.781317324244925e-09	1.188580e+00
6.849676699244925e-09	1.189461e+00
6.918036074244925e-09	1.190342e+00
6.986395449244926e-09	1.191222e+00
7.054754824244926e-09	1.192101e+00
7.123114199244926e-09	1.192981e+00
7.191473574244926e-09	1.193859e+00
7.259832949244926e-09	1.194737e+00
7.328192324244926e-09	1.195615e+00
7.396551699244927e-09	1.196492e+00
7.464911074244927e-09	1.197369e+00
7.533270449244926e-09	1.198245e+00
7.601629824244925e-09	1.199121e+00
7.669989199244925e-09	1.199996e+00
7.738348574244924e-09	1.200871e+00
7.806707949244923e-09	1.201745e+00
7.875067324244923e-09	1.202620e+00
7.943426699244922e-09	1.203493e+00
8.011786074244922e-09	1.204367e+00
8.080145449244921e-09	1.205240e+00
8.148504824244920e-09	1.206113e+00
8.216864199244920e-09	1.206985e+00
8.285223574244919e-09	1.207857e+00
8.353582949244918e-09	1.208729e+00
8.421942324244918e-09	1.209600e+00
8.490301699244917e-09	1.210472e+00
8.558661074244916e-09	1.211343e+00
8.627020449244916e-09	1.212214e+00
8.695379824244915e-09	1.213084e+00
8.763739199244914e-09	1.213955e+00
8.832098574244914e-09	1.214825e+00
8.900457949244913e-09	1.215695e+00
8.968817324244912e-09	1.216565e+00
9.037176699244912e-09	1.217434e+00
9.105536074244911e-09	1.218304e+00
9.173895449244910e-09	1.219173e+00
9.242254824244910e-09	1.220043e+00
9.310614199244909e-09	1.220912e+00
9.378973574244908e-09	1.221781e+00
9.447332949244908e-09	1.222650e+00
9.515692324244907e-09	1.223519e+00
9.584051699244906e-09	1.224389e+00
9.652411074244906e-09	1.225258e+00
9.720770449244905e-09	1.226127e+00
9.789129824244904e-09	1.226996e+00
9.857489199244904e-09	1.227865e+00
9.925848574244903e-09	1.228734e+00
9.994207949244903e-09	1.229604e+00
1.006256732424490e-08	1.230473e+00
1.013092669924490e-08	1.231343e+00
1.019928607424490e-08	1.232213e+00
1.026764544924490e-08	1.233083e+00
1.033600482424490e-08	1.233953e+00
1.040436419924490e-08	1.234823e+00
1.047272357424490e-08	1.235694e+00
1.054108294924490e-08	1.236565e+00
1.060944232424490e-08	1.237436e+00
1.067780169924490e-08	1.238307e+00
1.074616107424490e-08	1.239179e+00
1.081452044924489e-08	1.240051e+00
1.088287982424489e-08	1.240923e+00
1.095123919924489e-08	1.241796e+00
1.101959857424489e-08	1.242669e+00
1.108795794924489e-08	1.243543e+00
1.115631732424489e-08	1.244417e+00
1.122467669924489e-08	1.245292e+00
1.129303607424489e-08	1.246166e+00
1.136139544924489e-08	1.247042e+00
1.142975482424489e-08	1.247918e+00
1.149811419924489e-08	1.248795e+00
1.156647357424489e-08	1.249672e+00
1.163483294924489e-08	1.250550e+00
1.170319232424489e-08	1.251428e+00
1.177155169924489e-08	1.252307e+00
1.183991107424488e-08	1.253187e+00
1.190827044924488e-08	1.254068e+00
1.197662982424488e-08	1.254949e+00
1.204498919924488e-08	1.255831e+00
1.211334857424488e-08	1.256714e+00
1.218170794924488e-08	1.257598e+00
1.225006732424488e-08	1.258483e+00
1.231842669924488e-08	1.259368e+00
1.238678607424488e-08	1.260255e+00
1.245514544924488e-08	1.261142e+00
1.252350482424488e-08	1.262030e+00
1.259186419924488e-08	1.262920e+00
1.266022357424488e-08	1.263811e+00
1.272858294924488e-08	1.264702e+00
1.279694232424488e-08	1.265595e+00
1.286530169924488e-08	1.266489e+00
1.293366107424487e-08	1.267384e+00
1.300202044924487e-08	1.268280e+00
1.307037982424487e-08	1.269178e+00
1.313873919924487e-08	1.270077e+00
1.320709857424487e-08	1.270977e+00
1.327545794924487e-08	1.271879e+00
1.334381732424487e-08	1.272782e+00
1.341217669924487e-08	1.273687e+00
1.348053607424487e-08	1.274593e+00
1.354889544924487e-08	1.275500e+00
1.361725482424487e-08	1.276410e+00
1.368561419924487e-08	1.277321e+00
1.375397357424487e-08	1.278233e+00
1.382233294924487e-08	1.279147e+00
1.389069232424487e-08	1.280064e+00
1.395905169924486e-08	1.280981e+00
1.402741107424486e-08	1.281901e+00
1.409577044924486e-08	1.282823e+00
1.416412982424486e-08	1.283747e+00
1.423248919924486e-08	1.284672e+00
1.430084857424486e-08	1.285600e+00
1.436920794924486e-08	1.286530e+00
1.443756732424486e-08	1.287462e+00
1.450592669924486e-08	1.288396e+00
1.457428607424486e-08	1.289333e+00
1.464264544924486e-08	1.290272e+00
1.471100482424486e-08	1.291213e+00
1.477936419924486e-08	1.292157e+00
1.484772357424486e-08	1.293104e+00
1.491608294924486e-08	1.294052e+00
1.498444232424486e-08	1.295004e+00
1.505280169924486e-08	1.295959e+00
1.512116107424486e-08	1.296916e+00
1.518952044924486e-08	1.297876e+00
1.525787982424486e-08	1.298839e+00
1.532623919924486e-08	1.299805e+00
1.539459857424486e-08	1.300774e+00
1.546295794924486e-08	1.301746e+00
1.553131732424486e-08	1.302721e+00
1.559967669924487e-08	1.303700e+00
1.566803607424487e-08	1.304682e+00
1.573639544924487e-08	1.305668e+00
1.580475482424487e-08	1.306657e+00
1.587311419924487e-08	1.307650e+00
1.594147357424487e-08	1.308647e+00
1.600983294924487e-08	1.309647e+00
1.607819232424487e-08	1.310652e+00
1.614655169924487e-08	1.311660e+00
1.621491107424487e-08	1.312673e+00
1.628327044924488e-08	1.313690e+00
1.635162982424488e-08	1.314711e+00
1.641998919924488e-08	1.315736e+00
1.648834857424488e-08	1.316766e+00
1.655670794924488e-08	1.317801e+00
1.662506732424488e-08	1.318841e+00
1.669342669924488e-08	1.319885e+00
1.676178607424488e-08	1.320934e+00
1.683014544924488e-08	1.321989e+00
1.689850482424488e-08	1.323049e+00
1.696686419924489e-08	1.324114e+00
1.703522357424489e-08	1.325185e+00
1.710358294924489e-08	1.326261e+00
1.717194232424489e-08	1.327344e+00
1.724030169924489e-08	1.328432e+00
1.730866107424489e-08	1.329526e+00
1.737702044924489e-08	1.330627e+00
1.744537982424489e-08	1.331734e+00
1.751373919924489e-08	1.332847e+00
1.758209857424489e-08	1.333968e+00
1.765045794924490e-08	1.335095e+00
1.771881732424490e-08	1.336229e+00
1.778717669924490e-08	1.337371e+00
1.785553607424490e-08	1.338520e+00
1.792389544924490e-08	1.339677e+00
1.799225482424490e-08	1.340842e+00
1.806061419924490e-08	1.342015e+00
1.812897357424490e-08	1.343196e+00
1.819733294924490e-08	1.344386e+00
1.826569232424490e-08	1.345584e+00
1.833405169924491e-08	1.346792e+00
1.840241107424491e-08	1.348008e+00
1.847077044924491e-08	1.349234e+00
1.853912982424491e-08	1.350470e+00
1.860748919924491e-08	1.351716e+00
1.867584857424491e-08	1.352973e+00
1.874420794924491e-08	1.354239e+00
1.881256732424491e-08	1.355517e+00
1.888092669924491e-08	1.356806e+00
1.894928607424491e-08	1.358106e+00
1.901764544924492e-08	1.359418e+00
1.908600482424492e-08	1.360743e+00
1.915436419924492e-08	1.362079e+00
1.922272357424492e-08	1.363429e+00
1.929108294924492e-08	1.364792e+00
1.935944232424492e-08	1.366169e+00
1.942780169924492e-08	1.367559e+00
1.949616107424492e-08	1.368964e+00
1.956452044924492e-08	1.370384e+00
1.963287982424492e-08	1.371820e+00
1.970123919924493e-08	1.373271e+00
1.976959857424493e-08	1.374738e+00
1.983795794924493e-08	1.376222e+00
1.990631732424493e-08	1.377723e+00
1.997467669924493e-08	1.379243e+00
2.004303607424493e-08	1.380781e+00
2.011139544924493e-08	1.382337e+00
2.017975482424493e-08	1.383914e+00
2.024811419924493e-08	1.385510e+00
2.031647357424493e-08	1.387128e+00
2.038483294924494e-08	1.388767e+00
2.045319232424494e-08	1.390429e+00
2.052155169924494e-08	1.392113e+00
2.058991107424494e-08	1.393822e+00
2.065827044924494e-08	1.395555e+00
2.072662982424494e-08	1.397313e+00
2.079498919924494e-08	1.399099e+00
2.086334857424494e-08	1.400911e+00
2.093170794924494e-08	1.402752e+00
2.100006732424494e-08	1.404622e+00
2.106842669924495e-08	1.406522e+00
2.113678607424495e-08	1.408454e+00
2.120514544924495e-08	1.410418e+00
2.127350482424495e-08	1.412417e+00
2.134186419924495e-08	1.414450e+00
2.141022357424495e-08	1.416520e+00
2.147858294924495e-08	1.418628e+00
2.154694232424495e-08	1.420775e+00
2.161530169924495e-08	1.422964e+00
2.168366107424495e-08	1.425194e+00
2.175202044924496e-08	1.427469e+00
2.182037982424496e-08	1.429790e+00
2.188873919924496e-08	1.432159e+00
2.195709857424496e-08	1.434577e+00
2.202545794924496e-08	1.437048e+00
2.209381732424496e-08	1.439573e+00
2.216217669924496e-08	1.442154e+00
2.223053607424496e-08	1.444794e+00
2.229889544924496e-08	1.447496e+00
2.236725482424496e-08	1.450262e+00
2.243561419924497e-08	1.453095e+00
2.250397357424497e-08	1.455998e+00
2.257233294924497e-08	1.458975e+00
2.264069232424497e-08	1.462029e+00
2.270905169924497e-08	1.465164e+00
2.277741107424497e-08	1.468382e+00
2.284577044924497e-08	1.471690e+00
2.291412982424497e-08	1.475090e+00
2.298248919924497e-08	1.478588e+00
2.305084857424497e-08	1.482188e+00
2.311920794924498e-08	1.485895e+00
2.318756732424498e-08	1.489716e+00
2.325592669924498e-08	1.493656e+00
2.332428607424498e-08	1.497721e+00
2.339264544924498e-08	1.501919e+00
2.346100482424498e-08	1.506255e+00
2.352936419924498e-08	1.510739e+00
2.359772357424498e-08	1.515378e+00
2.366608294924498e-08	1.520180e+00
2.373444232424498e-08	1.525156e+00
2.380280169924499e-08	1.530316e+00
2.387116107424499e-08	1.535669e+00
2.393952044924499e-08	1.541229e+00
2.400787982424499e-08	1.547006e+00
2.407623919924499e-08	1.553015e+00
2.414459857424499e-08	1.559269e+00
2.421295794924499e-08	1.565785e+00
2.428131732424499e-08	1.572578e+00
2.434967669924499e-08	1.579667e+00
2.441803607424499e-08	1.587070e+00
2.448639544924500e-08	1.594808e+00
2.455475482424500e-08	1.602904e+00
2.462311419924500e-08	1.611382e+00
2.469147357424500e-08	1.620267e+00
2.475983294924500e-08	1.629587e+00
2.482819232424500e-08	1.639373e+00
2.489655169924500e-08	1.649658e+00
2.496491107424500e-08	1.660477e+00
2.503327044924500e-08	1.671870e+00
2.510162982424500e-08	1.683876e+00
2.516998919924501e-08	1.696543e+00
2.523834857424501e-08	1.709919e+00
2.530670794924501e-08	1.724058e+00
2.537506732424501e-08	1.739017e+00
2.544342669924501e-08	1.754862e+00
2.551178607424501e-08	1.771660e+00
2.558014544924501e-08	1.789486e+00
2.564850482424501e-08	1.808423e+00
2.571686419924501e-08	1.828559e+00
2.578522357424501e-08	1.849992e+00
2.585358294924502e-08	1.872827e+00
2.592194232424502e-08	1.897177e+00
2.599030169924502e-08	1.923167e+00
2.605866107424502e-08	1.950914e+00
2.612702044924502e-08	1.980449e+00
2.619537982424502e-08	2.011657e+00
2.626373919924502e-08	2.044335e+00
2.633209857424502e-08	2.078269e+00
2.640045794924502e-08	2.113261e+00
2.646881732424502e-08	2.149140e+00
2.653717669924503e-08	2.185758e+00
2.660553607424503e-08	2.222992e+00
2.667389544924503e-08	2.260739e+00
2.674225482424503e-08	2.298912e+00
2.681061419924503e-08	2.337441e+00
2.687897357424503e-08	2.376265e+00
2.694733294924503e-08	2.415334e+00
2.701569232424503e-08	2.454607e+00
2.708405169924503e-08	2.494050e+00
2.715241107424503e-08	2.533633e+00
2.722077044924504e-08	2.573334e+00
2.728912982424504e-08	2.613131e+00
2.735748919924504e-08	2.653010e+00
2.742584857424504e-08	2.692955e+00
2.749420794924504e-08	2.732956e+00
2.756256732424504e-08	2.773004e+00
2.763092669924504e-08	2.813091e+00
2.769928607424504e-08	2.853209e+00
2.776764544924504e-08	2.893356e+00
2.783600482424504e-08	2.933524e+00
2.790436419924505e-08	2.973712e+00
2.797272357424505e-08	3.013916e+00
2.804108294924505e-08	3.054133e+00
2.810944232424505e-08	3.094363e+00
2.817780169924505e-08	3.134603e+00
2.824616107424505e-08	3.174851e+00
2.831452044924505e-08	3.215108e+00
2.838287982424505e-08	3.255371e+00
2.845123919924505e-08	3.295641e+00
2.851959857424505e-08	3.335916e+00
2.858795794924506e-08	3.376197e+00
2.865631732424506e-08	3.416483e+00
2.872467669924506e-08	3.456773e+00
2.879303607424506e-08	3.497068e+00
2.886139544924506e-08	3.537368e+00
2.892975482424506e-08	3.577672e+00
2.899811419924506e-08	3.617979e+00
2.906647357424506e-08	3.658291e+00
2.913483294924506e-08	3.698607e+00
2.920319232424506e-08	3.738928e+00
2.927155169924507e-08	3.779252e+00
2.933991107424507e-08	3.819580e+00
2.940827044924507e-08	3.859913e+00
2.947662982424507e-08	3.900250e+00
2.954498919924507e-08	3.940591e+00
2.961334857424507e-08	3.980937e+00
2.968170794924507e-08	4.021286e+00
2.975006732424507e-08	4.061641e+00
2.981842669924507e-08	4.102000e+00
2.988678607424507e-08	4.142363e+00
2.995514544924507e-08	4.182731e+00
3.002350482424507e-08	4.223103e+00
3.009186419924506e-08	4.263480e+00
3.016022357424506e-08	4.303862e+00
3.022858294924506e-08	4.344249e+00
3.029694232424506e-08	4.384641e+00
3.036530169924505e-08	4.425037e+00
3.043366107424505e-08	4.465439e+00
3.050202044924505e-08	4.505845e+00
3.057037982424505e-08	4.546257e+00
3.063873919924505e-08	4.586674e+00
3.070709857424504e-08	4.627095e+00
3.077545794924504e-08	4.667523e+00
3.084381732424504e-08	4.707955e+00
3.091217669924504e-08	4.748393e+00
3.098053607424503e-08	4.788836e+00
3.104889544924503e-08	4.829284e+00
3.111725482424503e-08	4.869738e+00
3.118561419924503e-08	4.910197e+00
3.125397357424502e-08	4.950662e+00
3.132233294924502e-08	4.991133e+00
3.139069232424502e-08	5.031610e+00
3.145905169924502e-08	5.072091e+00
3.152741107424502e-08	5.112578e+00
3.159577044924501e-08	5.153072e+00
3.166412982424501e-08	5.193571e+00
3.173248919924501e-08	5.234076e+00
3.180084857424501e-08	5.274586e+00
3.186920794924500e-08	5.315103e+00
3.193756732424500e-08	5.355626e+00
3.200592669924500e-08	5.396153e+00
3.207428607424500e-08	5.436688e+00
3.214264544924499e-08	5.477228e+00
3.221100482424499e-08	5.517776e+00
3.227936419924499e-08	5.558328e+00
3.234772357424499e-08	5.598886e+00
3.241608294924499e-08	5.639452e+00
3.248444232424498e-08	5.680023e+00
3.255280169924498e-08	5.720600e+00
3.262116107424498e-08	5.761184e+00
3.268952044924498e-08	5.801774e+00
3.275787982424497e-08	5.842371e+00
3.282623919924497e-08	5.882973e+00
3.289459857424497e-08	5.923583e+00
3.296295794924497e-08	5.964198e+00
3.303131732424496e-08	6.004821e+00
3.309967669924496e-08	6.045449e+00
3.316803607424496e-08	6.086085e+00
3.323639544924496e-08	6.126727e+00
3.330475482424496e-08	6.167376e+00
3.337311419924495e-08	6.208031e+00
3.344147357424495e-08	6.248694e+00
3.350983294924495e-08	6.289363e+00
3.357819232424495e-08	6.330039e+00
3.364655169924494e-08	6.370721e+00
3.371491107424494e-08	6.411411e+00
3.378327044924494e-08	6.452108e+00
3.385162982424494e-08	6.492813e+00
3.391998919924493e-08	6.533524e+00
3.398834857424493e-08	6.574243e+00
3.405670794924493e-08	6.614968e+00
3.412506732424493e-08	6.655701e+00
3.419342669924493e-08	6.696442e+00
3.426178607424492e-08	6.737191e+00
3.433014544924492e-08	6.777947e+00
3.439850482424492e-08	6.818710e+00
3.446686419924492e-08	6.859482e+00
3.453522357424491e-08	6.900262e+00
3.460358294924491e-08	6.941050e+00
3.467194232424491e-08	6.981846e+00
3.474030169924491e-08	7.022650e+00
3.480866107424490e-08	7.063463e+00
3.487702044924490e-08	7.104285e+00
3.494537982424490e-08	7.145116e+00
3.501373919924490e-08	7.185956e+00
3.508209857424490e-08	7.226805e+00
3.515045794924489e-08	7.267664e+00
3.521881732424489e-08	7.308532e+00
3.528717669924489e-08	7.349411e+00
3.535553607424489e-08	7.390300e+00
3.542389544924488e-08	7.431200e+00
3.549225482424488e-08	7.472111e+00
3.556061419924488e-08	7.513033e+00
3.562897357424488e-08	7.553966e+00
3.569733294924487e-08	7.594913e+00
3.576569232424487e-08	7.635872e+00
3.583405169924487e-08	7.676844e+00
3.590241107424487e-08	7.717830e+00
3.597077044924487e-08	7.758830e+00
3.603912982424486e-08	7.799846e+00
3.610748919924486e-08	7.840876e+00
3.617584857424486e-08	7.881924e+00
3.624420794924486e-08	7.922989e+00
3.631256732424485e-08	7.964072e+00
3.638092669924485e-08	8.005174e+00
3.644928607424485e-08	8.046297e+00
